#! FIELDS theta file.free der_theta
#! SET min_theta -pi
#! SET max_theta pi
#! SET nbins_theta  200
#! SET periodic_theta true
   -3.141592654   46.934360874   13.470373318
   -3.110176727   47.324205081   11.023411185
   -3.078760801   47.631617625    8.504734515
   -3.047344874   47.856996166    5.878492434
   -3.015928947   47.992295493    3.099940247
   -2.984513021   48.052324695    0.215592705
   -2.953097094   48.017584334   -2.741102010
   -2.921681168   47.891126567   -5.815345825
   -2.890265241   47.667355174   -8.911286351
   -2.858849315   47.336277686  -12.052784339
   -2.827433388   46.913333878  -15.225373717
   -2.796017462   46.387605910  -18.414097593
   -2.764601535   45.768021452  -21.595399185
   -2.733185609   45.039792219  -24.694640349
   -2.701769682   44.219699665  -27.768958076
   -2.670353756   43.303596132  -30.718100097
   -2.638937829   42.301454469  -33.604930434
   -2.607521902   41.203342613  -36.303886815
   -2.576105976   40.023673576  -38.853179833
   -2.544690049   38.765897968  -41.199352669
   -2.513274123   37.439741455  -43.334426887
   -2.481858196   36.053167335  -45.238728003
   -2.450442270   34.608444514  -46.869121534
   -2.419026343   33.118995351  -48.262661564
   -2.387610417   31.588380929  -49.378254256
   -2.356194490   30.027277396  -50.168022146
   -2.324778564   28.444357793  -50.616951833
   -2.293362637   26.854004623  -50.790086278
   -2.261946711   25.258617777  -50.679199925
   -2.230530784   23.671114713  -50.226999564
   -2.199114858   22.110869016  -49.502900139
   -2.167698931   20.574383614  -48.449782969
   -2.136283004   19.074212392  -47.106563713
   -2.104867078   17.617073372  -45.517325665
   -2.073451151   16.218320199  -43.666487630
   -2.042035225   14.876909959  -41.578071970
   -2.010619298   13.608248353  -39.295315305
   -1.979203372   12.416274870  -36.799990119
   -1.947787445   11.303867074  -34.137903955
   -1.916371519   10.278334998  -31.342096109
   -1.884955592    9.339145819  -28.389691036
   -1.853539666    8.491124053  -25.360195265
   -1.822123739    7.746099124  -22.230200570
   -1.790707813    7.098506858  -19.094096520
   -1.759291886    6.551845538  -15.843598716
   -1.727875959    6.108958867  -12.583562086
   -1.696460033    5.767237648   -9.310025866
   -1.665044106    5.527613075   -6.052134606
   -1.633628180    5.389023415   -2.810224531
   -1.602212253    5.357287060    0.343598528
   -1.570796327    5.417288891    3.421811477
   -1.539380400    5.571444442    6.466095039
   -1.507964474    5.822579386    9.403541127
   -1.476548547    6.164063451   12.254016956
   -1.445132621    6.590501613   14.970024986
   -1.413716694    7.102049318   17.553090341
   -1.382300768    7.694056829   20.020032327
   -1.350884841    8.360158348   22.316940975
   -1.319468915    9.095406672   24.473359469
   -1.288052988    9.894803285   26.482687874
   -1.256637061   10.760183812   28.286572806
   -1.225221135   11.674553560   29.975632854
   -1.193805208   12.642336415   31.449505487
   -1.162389282   13.652587477   32.748341590
   -1.130973355   14.699115427   33.887423005
   -1.099557429   15.783421104   34.787749656
   -1.068141502   16.888652428   35.550005983
   -1.036725576   18.014261845   36.109159692
   -1.005309649   19.150970033   36.474239937
   -0.973893723   20.303162307   36.699825188
   -0.942477796   21.456969671   36.754602628
   -0.911061870   22.609558985   36.646029809
   -0.879645943   23.756659005   36.357021399
   -0.848230016   24.888923576   35.929700344
   -0.816814090   26.006628663   35.336363201
   -0.785398163   27.105241982   34.621000791
   -0.753982237   28.179080008   33.762366956
   -0.722566310   29.225123735   32.799718665
   -0.691150384   30.236921597   31.743355390
   -0.659734457   31.214587299   30.579516818
   -0.628318531   32.157468551   29.349429516
   -0.596902604   33.060383692   28.040074631
   -0.565486678   33.920457705   26.679208549
   -0.534070751   34.737850430   25.274850542
   -0.502654825   35.509949704   23.820564538
   -0.471238898   36.237279103   22.349804817
   -0.439822972   36.915069648   20.822969120
   -0.408407045   37.546201425   19.335275707
   -0.376991118   38.136509476   17.808848162
   -0.345575192   38.679170156   16.290768317
   -0.314159265   39.167719021   14.741289054
   -0.282743339   39.606219608   13.232597223
   -0.251327412   39.996135355   11.676034562
   -0.219911486   40.338026704   10.149810714
   -0.188495559   40.633495426    8.686320105
   -0.157079633   40.880216227    7.205833036
   -0.125663706   41.085072728    5.707357342
   -0.094247780   41.237832845    4.213220147
   -0.062831853   41.348575799    2.784399753
   -0.031415927   41.413820610    1.304837918
    0.000000000   41.436193680   -0.158534960
    0.031415927   41.406789244   -1.664340481
    0.062831853   41.334418861   -3.112159903
    0.094247780   41.212731358   -4.541699518
    0.125663706   41.054630631   -6.022608471
    0.157079633   40.841992588   -7.451066039
    0.188495559   40.585464825   -8.926633035
    0.219911486   40.284550958  -10.389257437
    0.251327412   39.935939694  -11.883303732
    0.282743339   39.541955480  -13.397230672
    0.314159265   39.098234124  -14.874755211
    0.345575192   38.615465768  -16.362738001
    0.376991118   38.078039909  -17.826329290
    0.408407045   37.494737372  -19.296062911
    0.439822972   36.867575410  -20.741517188
    0.471238898   36.195411602  -22.266354919
    0.502654825   35.475019314  -23.727302621
    0.534070751   34.709632891  -25.164138827
    0.565486678   33.899670184  -26.585042813
    0.596902604   33.049902425  -28.035318387
    0.628318531   32.150414847  -29.383690847
    0.659734457   31.206773531  -30.725040183
    0.691150384   30.222964520  -32.041721803
    0.722566310   29.196488447  -33.292223846
    0.753982237   28.134636387  -34.532895343
    0.785398163   27.033736948  -35.655239457
    0.816814090   25.901215625  -36.717712657
    0.848230016   24.731754541  -37.682268826
    0.879645943   23.532752081  -38.587939252
    0.911061870   22.311236618  -39.347815336
    0.942477796   21.063797598  -39.977831458
    0.973893723   19.800757190  -40.467817231
    1.005309649   18.526250718  -40.811697173
    1.036725576   17.245442805  -40.979009080
    1.068141502   15.956862443  -40.992389640
    1.099557429   14.670656640  -40.796744485
    1.130973355   13.396924701  -40.362671292
    1.162389282   12.137467205  -39.730298333
    1.193805208   10.904428630  -38.873509616
    1.225221135    9.703643639  -37.793285557
    1.256637061    8.537538956  -36.471060982
    1.288052988    7.416344136  -34.892181751
    1.319468915    6.348462006  -33.090822676
    1.350884841    5.345252329  -31.072612201
    1.382300768    4.409025679  -28.796245873
    1.413716694    3.540381659  -26.314902198
    1.445132621    2.758379411  -23.589551706
    1.476548547    2.061098826  -20.699310056
    1.507964474    1.461359081  -17.658314812
    1.539380400    0.958216398  -14.425325127
    1.570796327    0.554681251  -11.128894398
    1.602212253    0.261356950   -7.687961291
    1.633628180    0.073562748   -4.166327877
    1.665044106    0.000000000   -0.604392365
    1.696460033    0.039222377    2.967901931
    1.727875959    0.192459458    6.535900270
    1.759291886    0.461146467   10.044175899
    1.790707813    0.832510734   13.516148672
    1.822123739    1.318562984   16.878753042
    1.853539666    1.901327507   20.156100241
    1.884955592    2.584991493   23.286359999
    1.916371519    3.363151523   26.240591569
    1.947787445    4.231597258   29.009347288
    1.979203372    5.185241093   31.594550762
    2.010619298    6.214980411   33.961965169
    2.042035225    7.320815004   36.066197864
    2.073451151    8.485650077   37.963974813
    2.104867078    9.706151290   39.644237866
    2.136283004   10.974220162   41.096815133
    2.167698931   12.286158127   42.295273485
    2.199114858   13.632253327   43.280371793
    2.230530784   15.002943622   44.056596854
    2.261946711   16.399811280   44.625997697
    2.293362637   17.806076757   44.967528720
    2.324778564   19.219383913   45.127282448
    2.356194490   20.634902315   45.112450113
    2.387610417   22.048971510   44.962982516
    2.419026343   23.454287557   44.638192911
    2.450442270   24.849416994   44.179719772
    2.481858196   26.229949930   43.632015721
    2.513274123   27.593149333   42.964761040
    2.544690049   28.930052520   42.182424364
    2.576105976   30.244369252   41.316336999
    2.607521902   31.535160441   40.368089510
    2.638937829   32.784388138   39.378693452
    2.670353756   34.002382187   38.302282136
    2.701769682   35.185215665   37.160387140
    2.733185609   36.333658921   35.959686325
    2.764601535   37.447571645   34.713645350
    2.796017462   38.515094570   33.354101180
    2.827433388   39.544208212   31.990011519
    2.858849315   40.527364442   30.526735899
    2.890265241   41.463041706   29.005459101
    2.921681168   42.349449824   27.394669133
    2.953097094   43.182667663   25.677945226
    2.984513021   43.961564184   23.912718775
    3.015928947   44.680921022   22.017944590
    3.047344874   45.344306939   20.050638486
    3.078760801   45.943538877   17.982580770
    3.110176727   46.478078448   15.798483707
