#! FIELDS theta file.free der_theta
#! SET min_theta -pi
#! SET max_theta pi
#! SET nbins_theta  200
#! SET periodic_theta true
   -3.141592654   42.162234312    2.577405017
   -3.110176727   42.198922585   -0.128413802
   -3.078760801   42.150552834   -2.834569856
   -3.047344874   42.017759751   -5.591949117
   -3.015928947   41.799578509   -8.342607689
   -2.984513021   41.495105419  -11.096223044
   -2.953097094   41.104267466  -13.821130667
   -2.921681168   40.628851691  -16.564342574
   -2.890265241   40.070588480  -19.305560473
   -2.858849315   39.423903006  -22.011264848
   -2.827433388   38.693083764  -24.644408306
   -2.796017462   37.890310451  -27.276350227
   -2.764601535   36.996163713  -29.774246099
   -2.733185609   36.019603612  -32.225467334
   -2.701769682   34.973189115  -34.544310510
   -2.670353756   33.859411593  -36.793642261
   -2.638937829   32.674060188  -38.870617228
   -2.607521902   31.423624085  -40.781614154
   -2.576105976   30.120077375  -42.570475864
   -2.544690049   28.754627834  -44.170529352
   -2.513274123   27.346280261  -45.579286976
   -2.481858196   25.897294732  -46.727688739
   -2.450442270   24.418447134  -47.701915379
   -2.419026343   22.908928013  -48.387506466
   -2.387610417   21.382897688  -48.830528270
   -2.356194490   19.846214988  -48.995771792
   -2.324778564   18.308987162  -48.871929702
   -2.293362637   16.784347152  -48.481654533
   -2.261946711   15.272573360  -47.797425609
   -2.230530784   13.788595133  -46.819136078
   -2.199114858   12.339447271  -45.568581760
   -2.167698931   10.930139729  -44.033643189
   -2.136283004    9.578567672  -42.228039833
   -2.104867078    8.285011173  -40.143738941
   -2.073451151    7.065341836  -37.800295183
   -2.042035225    5.922164388  -35.210312455
   -2.010619298    4.860209830  -32.402044959
   -1.979203372    3.889043139  -29.347923793
   -1.947787445    3.019342961  -26.130952228
   -1.916371519    2.252271484  -22.754305445
   -1.884955592    1.587333104  -19.274417425
   -1.853539666    1.036529637  -15.690383908
   -1.822123739    0.602251983  -11.989544193
   -1.790707813    0.281757282   -8.274784326
   -1.759291886    0.081428866   -4.513401849
   -1.727875959    0.000000000   -0.775297504
   -1.696460033    0.033001678    2.897044383
   -1.665044106    0.179646577    6.512078263
   -1.633628180    0.442408656   10.040869066
   -1.602212253    0.816288386   13.425149036
   -1.570796327    1.291518145   16.692834279
   -1.539380400    1.865024809   19.787205477
   -1.507964474    2.535472467   22.695029863
   -1.476548547    3.290990811   25.434197776
   -1.445132621    4.133848545   27.898082404
   -1.413716694    5.046215056   30.177597837
   -1.382300768    6.027264822   32.249392052
   -1.350884841    7.072349810   34.089374203
   -1.319468915    8.173390631   35.684015991
   -1.288052988    9.314831007   37.064644823
   -1.256637061   10.494254731   38.202063354
   -1.225221135   11.710144322   39.147808076
   -1.193805208   12.951519000   39.867384277
   -1.162389282   14.212048471   40.401265888
   -1.130973355   15.486714485   40.757761713
   -1.099557429   16.765571440   40.884284556
   -1.068141502   18.049204755   40.903238366
   -1.036725576   19.329495999   40.753388090
   -1.005309649   20.604479107   40.445530117
   -0.973893723   21.874461318   40.030121763
   -0.942477796   23.127027566   39.531127200
   -0.911061870   24.361325442   38.953497997
   -0.879645943   25.574716056   38.292107924
   -0.848230016   26.765876814   37.546810244
   -0.816814090   27.932967501   36.757518156
   -0.785398163   29.073381126   35.903006538
   -0.753982237   30.188215170   34.982157243
   -0.722566310   31.271091673   34.027686349
   -0.691150384   32.320758357   33.021969553
   -0.659734457   33.339942450   31.998046812
   -0.628318531   34.330083894   30.908861277
   -0.596902604   35.283106055   29.803571850
   -0.565486678   36.201550474   28.687221935
   -0.534070751   37.085863963   27.513730472
   -0.502654825   37.930248135   26.310413170
   -0.471238898   38.738073706   25.084818298
   -0.439822972   39.510739735   23.810805718
   -0.408407045   40.240828454   22.540252818
   -0.376991118   40.927655656   21.214986909
   -0.345575192   41.574009968   19.844929494
   -0.314159265   42.178640358   18.419044187
   -0.282743339   42.738055926   16.980986611
   -0.251327412   43.247456389   15.498951776
   -0.219911486   43.708674841   13.950797497
   -0.188495559   44.126890475   12.322320560
   -0.157079633   44.490199957   10.714799388
   -0.125663706   44.793588483    8.999496208
   -0.094247780   45.052827963    7.285510794
   -0.062831853   45.258469868    5.537509951
   -0.031415927   45.403790369    3.797438149
    0.000000000   45.492050092    1.962312650
    0.031415927   45.530787567    0.093501549
    0.062831853   45.506979462   -1.733105408
    0.094247780   45.417873512   -3.596573437
    0.125663706   45.280809500   -5.488708474
    0.157079633   45.076070201   -7.351794637
    0.188495559   44.822151430   -9.250108391
    0.219911486   44.502048965  -11.164601230
    0.251327412   44.124742911  -13.015482515
    0.282743339   43.688140220  -14.857868907
    0.314159265   43.196752396  -16.677968495
    0.345575192   42.646573077  -18.437254931
    0.376991118   42.037928239  -20.185482565
    0.408407045   41.377656969  -21.882104466
    0.439822972   40.665767871  -23.542532681
    0.471238898   39.901746580  -25.163584953
    0.502654825   39.089604646  -26.720956600
    0.534070751   38.225215829  -28.222330361
    0.565486678   37.318033620  -29.660659851
    0.596902604   36.363140071  -31.032140428
    0.628318531   35.366648596  -32.326979832
    0.659734457   34.329688752  -33.535736714
    0.691150384   33.261017602  -34.660602615
    0.722566310   32.155486027  -35.720083382
    0.753982237   31.019785251  -36.703181951
    0.785398163   29.853693273  -37.575339512
    0.816814090   28.659154241  -38.359354869
    0.848230016   27.444821493  -39.051763531
    0.879645943   26.214851888  -39.685624770
    0.911061870   24.961629003  -40.161546086
    0.942477796   23.695009599  -40.546959118
    0.973893723   22.417040896  -40.820216298
    1.005309649   21.133639425  -40.966652841
    1.036725576   19.846944267  -41.002311320
    1.068141502   18.560782560  -40.959340723
    1.099557429   17.280513660  -40.737068113
    1.130973355   16.006110470  -40.347925776
    1.162389282   14.747408073  -39.835213335
    1.193805208   13.509980485  -39.137830916
    1.225221135   12.290766370  -38.319378119
    1.256637061   11.103246569  -37.301553680
    1.288052988    9.950344726  -36.093119328
    1.319468915    8.835365307  -34.708671791
    1.350884841    7.766503287  -33.171893061
    1.382300768    6.751186292  -31.421486681
    1.413716694    5.795146579  -29.498477031
    1.445132621    4.904100521  -27.400959433
    1.476548547    4.079296151  -25.112604365
    1.507964474    3.331189565  -22.650193755
    1.539380400    2.661108606  -19.994401821
    1.570796327    2.075831288  -17.199055886
    1.602212253    1.585269206  -14.259904146
    1.633628180    1.185991679  -11.168889413
    1.665044106    0.883197319   -7.979067441
    1.696460033    0.679774402   -4.719053504
    1.727875959    0.588088947   -1.403966533
    1.759291886    0.600444642    1.995452854
    1.790707813    0.716358170    5.462986565
    1.822123739    0.944657689    8.902048880
    1.853539666    1.277709410   12.357806872
    1.884955592    1.718950540   15.763290020
    1.916371519    2.266998309   19.054560097
    1.947787445    2.917765876   22.266707625
    1.979203372    3.664985184   25.385622526
    2.010619298    4.509327377   28.356358968
    2.042035225    5.440886907   31.137919541
    2.073451151    6.460415185   33.729003870
    2.104867078    7.557931830   36.131503403
    2.136283004    8.725175312   38.300644773
    2.167698931    9.960708837   40.223922637
    2.199114858   11.252812860   41.909720029
    2.230530784   12.589193536   43.337651410
    2.261946711   13.968504431   44.534095313
    2.293362637   15.381912706   45.467469074
    2.324778564   16.821659395   46.118884822
    2.356194490   18.278585197   46.477525775
    2.387610417   19.739547863   46.627176962
    2.419026343   21.204430667   46.525776876
    2.450442270   22.660737734   46.187703112
    2.481858196   24.097055708   45.591601866
    2.513274123   25.521886367   44.762311538
    2.544690049   26.911041508   43.773170235
    2.576105976   28.267501968   42.565197987
    2.607521902   29.582916672   41.173941964
    2.638937829   30.852910681   39.683353571
    2.670353756   32.070942169   38.019312126
    2.701769682   33.228601042   36.182846140
    2.733185609   34.334353244   34.254529543
    2.764601535   35.380875836   32.228290352
    2.796017462   36.355646745   30.084293740
    2.827433388   37.268667087   27.880726598
    2.858849315   38.105070843   25.559366061
    2.890265241   38.868697321   23.169505963
    2.921681168   39.562027407   20.724512130
    2.953097094   40.174868920   18.243175214
    2.984513021   40.707899913   15.708210226
    3.015928947   41.163558978   13.150005839
    3.047344874   41.537071645   10.565661623
    3.078760801   41.829287270    7.940926542
    3.110176727   42.039327146    5.266108491
