# Free energy difference as a function of time
# Base command: plumed sum_hills --hills HILLS_2D --idw lambda --kt 2.4777090399459767 --min -3.141592653589793,0.0000 --max 3.141592653589793,8.0000 --spacing 0.01,0.01 --stride NUM_STRIDE
# Column 1: Time (ps); Column 2: Free energy difference (kT)
4000.0   15.824081971000027
4002.0   15.830057570000008
4004.0   15.830057570000008
4006.0   15.830057570000008
4008.0   15.830057570000008
4010.0   15.830057570000008
4012.0   15.830057570000008
4014.0   15.830057570000008
4016.0   15.635395838999983
4018.0   15.438047890999997
4020.0   15.237028148999997
4022.0   15.000019782999999
4024.0   14.797318214
4026.0   14.662819560999992
4028.0   14.574307728000008
4030.0   14.462676485000003
4032.0   14.313671435999993
4034.0   14.177889035999982
4036.0   14.177889035999982
4038.0   14.177889035999982
4040.0   14.179958016
4042.0   14.179958016
4044.0   14.167729442000024
4046.0   14.195529678000014
4048.0   14.232438131999999
4050.0   14.232438131999999
4052.0   14.232438131999999
4054.0   14.232438131999999
4056.0   14.243286435000016
4058.0   14.321649554000004
4060.0   14.34267010900001
4062.0   14.34267010900001
4064.0   14.344610347000014
4066.0   14.358685210000004
4068.0   14.41988766
4070.0   14.557450473000017
4072.0   14.615067328999999
4074.0   14.781799884999998
4076.0   14.85152764
4078.0   14.910195417000011
4080.0   14.986295263000017
4082.0   15.121573731000012
4084.0   15.309389834000001
4086.0   15.418574030000002
4088.0   15.592674536000004
4090.0   15.600543162999998
4092.0   15.600543162999998
4094.0   15.600543162999998
4096.0   15.600543162999998
4098.0   15.600543162999998
4100.0   15.600543162999998
4102.0   15.650609825000004
4104.0   15.650609825000004
4106.0   15.650609825000004
4108.0   15.75485099300002
4110.0   15.877005550000007
4112.0   15.918075116000011
4114.0   15.918075116000011
4116.0   15.918075116000011
4118.0   15.918075116000011
4120.0   15.916476627000009
4122.0   15.916476627000009
4124.0   15.916476627000009
4126.0   15.918184705000016
4128.0   15.785537708000021
4130.0   15.703829903000013
4132.0   15.623092530000008
4134.0   15.427194231000016
4136.0   15.299648869999999
4138.0   15.186288644000001
4140.0   15.007301471000005
4142.0   14.853116069999999
4144.0   14.715970112999997
4146.0   14.59234908800002
4148.0   14.385160240000005
4150.0   14.266653755000021
4152.0   14.108682674000022
4154.0   14.05583831300001
4156.0   13.961592079000013
4158.0   13.957634623000018
4160.0   13.942376260000003
4162.0   13.91857430600001
4164.0   13.91857430600001
4166.0   13.924689274999992
4168.0   13.983334366999998
4170.0   14.114324737000004
4172.0   14.124206903000015
4174.0   14.188141441999989
4176.0   14.22900204199999
4178.0   14.23971309000001
4180.0   14.23971309000001
4182.0   14.295640851000002
4184.0   14.295640851000002
4186.0   14.295640851000002
4188.0   14.296809916
4190.0   14.304427999000012
4192.0   14.346003553999992
4194.0   14.529585268000005
4196.0   14.599736608
4198.0   14.599736608
4200.0   14.599736608
4202.0   14.677198400999998
4204.0   14.820726473000008
4206.0   14.945050882000004
4208.0   15.015560394000005
4210.0   15.014378262999998
4212.0   14.869197028000002
4214.0   14.650416844000006
4216.0   14.483767110000002
4218.0   14.32316817200001
4220.0   14.319396021000017
4222.0   14.321206372000006
4224.0   14.321206372000006
4226.0   14.40793253000001
4228.0   14.657966544999994
4230.0   14.69868514800001
4232.0   14.692395766000004
4234.0   14.62236998900002
4236.0   14.607739783
4238.0   14.607739783
4240.0   14.607739783
4242.0   14.611568957999992
4244.0   14.620916432000001
4246.0   14.620916432000001
4248.0   14.620916432000001
4250.0   14.620916432000001
4252.0   14.620916432000001
4254.0   14.622989564999983
4256.0   14.744225844999988
4258.0   14.866131427
4260.0   14.915462509999998
4262.0   14.915462509999998
4264.0   14.915462509999998
4266.0   14.918062247999984
4268.0   14.902513800999998
4270.0   14.853705969000004
4272.0   14.878304880000002
4274.0   14.878304880000002
4276.0   14.880113747000024
4278.0   14.880113747000024
4280.0   14.923848769000017
4282.0   15.004706384000002
4284.0   15.01177370100001
4286.0   15.168152575000022
4288.0   15.311454902000008
4290.0   15.349336604000001
4292.0   15.349336604000001
4294.0   15.35219177800002
4296.0   15.36423016500001
4298.0   15.39087427200002
4300.0   15.39087427200002
4302.0   15.394571207000013
4304.0   15.465171805000011
4306.0   15.465171805000011
4308.0   15.475457423000023
4310.0   15.606872952000003
4312.0   15.608513045000024
4314.0   15.608513045000024
4316.0   15.608513045000024
4318.0   15.745627625000026
4320.0   16.118425598000016
4322.0   16.14766115400002
4324.0   16.15191767600001
4326.0   16.153211398000025
4328.0   16.21380574700001
4330.0   16.300530873000014
4332.0   16.335929053
4334.0   16.373581093000013
4336.0   16.483026596000002
4338.0   16.483026596000002
4340.0   16.483026596000002
4342.0   16.483026596000002
4344.0   16.483026596000002
4346.0   16.483026596000002
4348.0   16.553436732000023
4350.0   16.66227494900002
4352.0   16.670121566000006
4354.0   16.670121566000006
4356.0   16.670121566000006
4358.0   16.670121566000006
4360.0   16.69880355700002
4362.0   16.76558983000001
4364.0   16.896826611000023
4366.0   17.0563578
4368.0   17.08366313800002
4370.0   17.08366313800002
4372.0   17.08366313800002
4374.0   17.08366313800002
4376.0   17.165187963000022
4378.0   17.48015959600002
4380.0   17.693239612000013
4382.0   17.91114411000001
4384.0   17.91114411000001
4386.0   17.91114411000001
4388.0   17.914291083000023
4390.0   17.931076112
4392.0   17.932478305000018
4394.0   17.93599381300001
4396.0   17.95822925600001
4398.0   18.10638300400001
4400.0   18.14996105100002
4402.0   18.191050053000026
4404.0   18.264187485000008
4406.0   18.269701973000025
4408.0   18.36421991200001
4410.0   18.374291201000005
4412.0   18.374291201000005
4414.0   18.374291201000005
4416.0   18.376347399000025
4418.0   18.376347399000025
4420.0   18.376347399000025
4422.0   18.376347399000025
4424.0   18.37779807200002
4426.0   18.37779807200002
4428.0   18.38604361
4430.0   18.38604361
4432.0   18.449248748000002
4434.0   18.453155676000023
4436.0   18.417803417000016
4438.0   18.183156722999996
4440.0   17.957088017000018
4442.0   17.79783200600002
4444.0   17.619740536000023
4446.0   17.45323542600002
4448.0   17.364334664000012
4450.0   17.207767512000004
4452.0   17.105279285000023
4454.0   16.972735529000005
4456.0   16.84171250600002
4458.0   16.831156537
4460.0   16.80195933600001
4462.0   16.729908307000017
4464.0   16.62929994700002
4466.0   16.412913789000015
4468.0   16.199876821000004
4470.0   16.005697640000022
4472.0   15.827297248999997
4474.0   15.6663255
4476.0   15.495687443000008
4478.0   15.341809597999998
4480.0   15.21165322500002
4482.0   15.052250957000012
4484.0   14.841884382000018
4486.0   14.769357312000011
4488.0   14.670635325000006
4490.0   14.61747112400002
4492.0   14.61747112400002
4494.0   14.64852922
4496.0   14.655193703999998
4498.0   14.655193703999998
4500.0   14.678194715000018
4502.0   14.678194715000018
4504.0   14.678194715000018
4506.0   14.709797855000005
4508.0   14.709797855000005
4510.0   14.709797855000005
4512.0   14.709797855000005
4514.0   14.709797855000005
4516.0   14.709797855000005
4518.0   14.709797855000005
4520.0   14.766745190000023
4522.0   14.910936433000018
4524.0   14.982624119000008
4526.0   14.995437533
4528.0   15.053227535000019
4530.0   15.117098405999997
4532.0   15.155679608000014
4534.0   15.22395173000001
4536.0   15.318810560000003
4538.0   15.34207553600001
4540.0   15.478164321999998
4542.0   15.683810451
4544.0   15.839443140000014
4546.0   15.95061284900001
4548.0   16.133955053000022
4550.0   16.229896939000014
4552.0   16.388675464000016
4554.0   16.52801889
4556.0   16.646237739000014
4558.0   16.741725373999998
4560.0   16.75280597600002
4562.0   16.828766837000018
4564.0   16.93797035100002
4566.0   16.93797035100002
4568.0   16.93797035100002
4570.0   16.93797035100002
4572.0   16.93797035100002
4574.0   16.95873819800002
4576.0   16.97234887000002
4578.0   16.97234887000002
4580.0   16.97234887000002
4582.0   16.97234887000002
4584.0   16.97234887000002
4586.0   16.97234887000002
4588.0   16.985945834000006
4590.0   16.984665063999984
4592.0   16.984665063999984
4594.0   17.001202146999987
4596.0   17.001202146999987
4598.0   17.001202146999987
4600.0   17.001202146999987
4602.0   17.001202146999987
4604.0   17.03572848899998
4606.0   17.160878550999996
4608.0   17.229019360999985
4610.0   17.229019360999985
4612.0   17.229019360999985
4614.0   17.229019360999985
4616.0   17.23314430099998
4618.0   17.231282029
4620.0   17.24585511700002
4622.0   17.256237977000012
4624.0   17.256237977000012
4626.0   17.256237977000012
4628.0   17.259750408000002
4630.0   17.259750408000002
4632.0   17.259750408000002
4634.0   17.259750408000002
4636.0   17.252314565000006
4638.0   17.25502639300001
4640.0   17.36485883900002
4642.0   17.368685474000017
4644.0   17.368685474000017
4646.0   17.419786620000025
4648.0   17.500745529
4650.0   17.525569835
4652.0   17.579292780000003
4654.0   17.498579415999984
4656.0   17.286462433999986
4658.0   17.211312806999985
4660.0   17.10461790299999
4662.0   16.926983369999988
4664.0   16.688849680999994
4666.0   16.536381992000003
4668.0   16.401253258999986
4670.0   16.267103424
4672.0   16.00970688299998
4674.0   15.801319505999999
4676.0   15.646372048999979
4678.0   15.458162211000001
4680.0   15.309983810999995
4682.0   15.197346095
4684.0   15.088033655000004
4686.0   14.935076645999999
4688.0   14.907183649999979
4690.0   14.907183649999979
4692.0   14.909543897999981
4694.0   14.911784341999976
4696.0   14.991147711999986
4698.0   15.077243259999989
4700.0   15.09064639899998
4702.0   15.165303758999983
4704.0   15.18870437999999
4706.0   15.340257608999991
4708.0   15.340257608999991
4710.0   15.340257608999991
4712.0   15.362284752999983
4714.0   15.362284752999983
4716.0   15.368249002999988
4718.0   15.368249002999988
4720.0   15.368249002999988
4722.0   15.368249002999988
4724.0   15.368249002999988
4726.0   15.391741010999993
4728.0   15.504172679999982
4730.0   15.516513707000001
4732.0   15.516513707000001
4734.0   15.586423021999991
4736.0   15.586423021999991
4738.0   15.606621332999993
4740.0   15.609005423999974
4742.0   15.609005423999974
4744.0   15.630021022999983
4746.0   15.630021022999983
4748.0   15.630021022999983
4750.0   15.642520740999998
4752.0   15.735437912999998
4754.0   15.86073412799999
4756.0   15.946866454999991
4758.0   15.946866454999991
4760.0   15.946866454999991
4762.0   15.948703701
4764.0   15.948703701
4766.0   15.948703701
4768.0   15.948703701
4770.0   15.948703701
4772.0   15.948703701
4774.0   15.948703701
4776.0   16.007530142999997
4778.0   16.007530142999997
4780.0   16.007530142999997
4782.0   16.007530142999997
4784.0   15.98396892400001
4786.0   15.881289427000013
4788.0   15.694735855000005
4790.0   15.561159206000013
4792.0   15.373158570000015
4794.0   15.247388255000004
4796.0   15.21226595600001
4798.0   15.058674609999997
4800.0   14.946031708000021
4802.0   14.902388163000012
4804.0   14.802668038999997
4806.0   14.663286574000011
4808.0   14.616078461
4810.0   14.530265044000004
4812.0   14.459935637000001
4814.0   14.45772601500002
4816.0   14.45772601500002
4818.0   14.478493366999999
4820.0   14.51360707500001
4822.0   14.527645101000019
4824.0   14.527645101000019
4826.0   14.527645101000019
4828.0   14.527645101000019
4830.0   14.527645101000019
4832.0   14.527645101000019
4834.0   14.535416859000009
4836.0   14.535416859000009
4838.0   14.528326376999985
4840.0   14.43747954700001
4842.0   14.422753354999998
4844.0   14.422753354999998
4846.0   14.422753354999998
4848.0   14.422753354999998
4850.0   14.431767959000013
4852.0   14.433178220999991
4854.0   14.434634517000006
4856.0   14.436499270000013
4858.0   14.46555433399999
4860.0   14.572799841000005
4862.0   14.730326732000009
4864.0   14.865847432999999
4866.0   14.965753948000014
4868.0   15.046757082999989
4870.0   15.092464717000013
4872.0   15.092464717000013
4874.0   15.093903420000004
4876.0   15.093903420000004
4878.0   15.101321100000007
4880.0   15.123583529000001
4882.0   15.197008057000005
4884.0   15.268783348
4886.0   15.268783348
4888.0   15.271045708999992
4890.0   15.271045708999992
4892.0   15.271045708999992
4894.0   15.271045708999992
4896.0   15.276658934000011
4898.0   15.29451239299999
4900.0   15.29451239299999
4902.0   15.342491859000006
4904.0   15.369230240000007
4906.0   15.38230199200001
4908.0   15.508982070000002
4910.0   15.634653068000006
4912.0   15.734947005999999
4914.0   15.762274020000007
4916.0   15.884160330000014
4918.0   15.903579992000004
4920.0   15.903579992000004
4922.0   15.909971404000004
4924.0   16.032538017999997
4926.0   16.229222386999993
4928.0   16.34761818199999
4930.0   16.414020174
4932.0   16.548383494000007
4934.0   16.609609503
4936.0   16.609609503
4938.0   16.609609503
4940.0   16.609609503
4942.0   16.609609503
4944.0   16.609609503
4946.0   16.613791872000007
4948.0   16.730505842000014
4950.0   16.730505842000014
4952.0   16.730505842000014
4954.0   16.730505842000014
4956.0   16.730505842000014
4958.0   16.671904213000005
4960.0   16.40394292800002
4962.0   16.315926658000024
4964.0   16.16648174400001
4966.0   16.004958576000007
4968.0   15.84318453200001
4970.0   15.69408158500002
4972.0   15.629753573000016
4974.0   15.629753573000016
4976.0   15.688878211999992
4978.0   15.688878211999992
4980.0   15.688878211999992
4982.0   15.703162374000016
4984.0   15.840971678000017
4986.0   15.945587441000015
4988.0   15.945587441000015
4990.0   15.945587441000015
4992.0   15.941332526000025
4994.0   15.941332526000025
4996.0   15.941332526000025
4998.0   15.759110984000017
5000.0   15.65945020800001
