# Free energy difference as a function of time
# Base command: plumed sum_hills --hills HILLS_2D --idw lambda --kt 2.4777090399459767 --min -3.141592653589793,0.0000 --max 3.141592653589793,8.0000 --spacing 0.01,0.01 --stride NUM_STRIDE
# Column 1: Time (ps); Column 2: Free energy difference (kT)
4000.0   16.326634790000014
4002.0   16.330787114000003
4004.0   16.430003083000003
4006.0   16.488496638000015
4008.0   16.486834294999994
4010.0   16.459313885
4012.0   16.34246463400001
4014.0   16.208921422000003
4016.0   16.145361046999994
4018.0   16.06598943200001
4020.0   16.007323352000014
4022.0   16.007323352000014
4024.0   16.092066391000003
4026.0   16.188963148
4028.0   16.28927131400002
4030.0   16.348483746
4032.0   16.39872364200002
4034.0   16.39872364200002
4036.0   16.39872364200002
4038.0   16.39872364200002
4040.0   16.317745375000015
4042.0   16.145465021000007
4044.0   15.909069523
4046.0   15.703272632000022
4048.0   15.529282276000004
4050.0   15.414096043
4052.0   15.274797675000002
4054.0   15.186473301000007
4056.0   15.102449597000003
4058.0   15.01495636200002
4060.0   14.985905322999997
4062.0   14.985905322999997
4064.0   14.985905322999997
4066.0   14.985905322999997
4068.0   14.989602436999974
4070.0   15.071477132999973
4072.0   15.122144260999988
4074.0   15.127597225999978
4076.0   15.127597225999978
4078.0   15.127597225999978
4080.0   15.127597225999978
4082.0   15.127597225999978
4084.0   15.127597225999978
4086.0   15.127597225999978
4088.0   15.162183680999988
4090.0   15.196317574999995
4092.0   15.214684002999974
4094.0   15.229262414999994
4096.0   15.229262414999994
4098.0   15.229262414999994
4100.0   15.230396488999986
4102.0   15.231640299999981
4104.0   15.224950766000006
4106.0   15.224950766000006
4108.0   15.218110351000007
4110.0   15.094198223999996
4112.0   14.938339329999991
4114.0   14.778633160999988
4116.0   14.704922598999985
4118.0   14.580231647000005
4120.0   14.503993473999998
4122.0   14.503993473999998
4124.0   14.649308332000004
4126.0   14.758754772000003
4128.0   14.859087017999997
4130.0   14.995631594999992
4132.0   15.109792671999998
4134.0   15.153856694000012
4136.0   15.194723557000003
4138.0   15.204758440999996
4140.0   15.204758440999996
4142.0   15.204758440999996
4144.0   15.200743685999981
4146.0   15.178630589999983
4148.0   15.093374525000002
4150.0   14.957646781999983
4152.0   14.882455386000004
4154.0   14.812161925999987
4156.0   14.712039635999986
4158.0   14.620149185999992
4160.0   14.613614079000001
4162.0   14.613614079000001
4164.0   14.605096514999985
4166.0   14.622066136
4168.0   14.688511885999986
4170.0   14.840202790999996
4172.0   14.840202790999996
4174.0   14.840202790999996
4176.0   14.856665991
4178.0   14.856665991
4180.0   14.856665991
4182.0   14.856665991
4184.0   14.856665991
4186.0   14.924147578000003
4188.0   14.974553139999983
4190.0   15.071810987999982
4192.0   15.195681014000002
4194.0   15.274265432999982
4196.0   15.306780334999985
4198.0   15.389543406000001
4200.0   15.398806151000002
4202.0   15.451223532
4204.0   15.451223532
4206.0   15.451223532
4208.0   15.504309894999977
4210.0   15.567897563999992
4212.0   15.685272682999994
4214.0   15.733549331999996
4216.0   15.799440928999985
4218.0   15.799440928999985
4220.0   15.801678947999989
4222.0   15.801678947999989
4224.0   15.802963490999986
4226.0   15.802963490999986
4228.0   15.802963490999986
4230.0   15.802963490999986
4232.0   15.852376476999979
4234.0   15.852376476999979
4236.0   15.852376476999979
4238.0   15.853743010999978
4240.0   15.853743010999978
4242.0   15.927194530999998
4244.0   15.960869952999985
4246.0   15.973998781999995
4248.0   15.973998781999995
4250.0   15.978537478999982
4252.0   15.978537478999982
4254.0   15.978537478999982
4256.0   15.978537478999982
4258.0   16.03421346099998
4260.0   16.108576667999984
4262.0   16.190095622
4264.0   16.335514031999992
4266.0   16.446152576000003
4268.0   16.447178856999983
4270.0   16.447178856999983
4272.0   16.440344081999996
4274.0   16.397137982000004
4276.0   16.397137982000004
4278.0   16.397137982000004
4280.0   16.402907295000006
4282.0   16.429225722000012
4284.0   16.54256276000001
4286.0   16.606184162000005
4288.0   16.67288915200001
4290.0   16.678324506000024
4292.0   16.680236043000008
4294.0   16.737136325000023
4296.0   16.811653495
4298.0   16.93142572900001
4300.0   17.008109142000023
4302.0   17.055045342
4304.0   17.138238539000014
4306.0   17.157356137000022
4308.0   17.157356137000022
4310.0   17.159542618000017
4312.0   17.159542618000017
4314.0   17.159542618000017
4316.0   17.157955498999996
4318.0   17.157955498999996
4320.0   17.157955498999996
4322.0   17.157955498999996
4324.0   17.173043057
4326.0   17.171577448000022
4328.0   17.168225803000013
4330.0   17.16193210100002
4332.0   17.139742825000013
4334.0   17.171362859999988
4336.0   17.306943654999998
4338.0   17.429931525
4340.0   17.460923245000004
4342.0   17.47049146500001
4344.0   17.602633055000013
4346.0   17.641085597
4348.0   17.641085597
4350.0   17.66895471699999
4352.0   17.80044610600001
4354.0   17.864934737
4356.0   17.800200353000008
4358.0   17.687220069999995
4360.0   17.58458421399999
4362.0   17.441162163
4364.0   17.264326794999988
4366.0   17.10638468900001
4368.0   16.940577986999983
4370.0   16.789230529999998
4372.0   16.636661943999997
4374.0   16.509464476999995
4376.0   16.357398227999994
4378.0   16.28554854800001
4380.0   16.178441359000004
4382.0   16.033426606999996
4384.0   15.937452412999988
4386.0   15.899770926000002
4388.0   15.799783169999984
4390.0   15.729332655999997
4392.0   15.729332655999997
4394.0   15.729332655999997
4396.0   15.729332655999997
4398.0   15.729332655999997
4400.0   15.731473703000006
4402.0   15.731473703000006
4404.0   15.734347098
4406.0   15.734347098
4408.0   15.734347098
4410.0   15.734347098
4412.0   15.734347098
4414.0   15.734347098
4416.0   15.772491212000006
4418.0   15.826727984999991
4420.0   15.858775675000004
4422.0   15.917778749000007
4424.0   15.96252522399999
4426.0   16.031311144
4428.0   16.03579376799999
4430.0   16.064773150999997
4432.0   16.10364724499999
4434.0   16.18541786899999
4436.0   16.238641215
4438.0   16.238641215
4440.0   16.241869787000013
4442.0   16.244642340000013
4444.0   16.244642340000013
4446.0   16.257425256999994
4448.0   16.30818301100001
4450.0   16.30818301100001
4452.0   16.308894912
4454.0   16.326371230000007
4456.0   16.326371230000007
4458.0   16.326371230000007
4460.0   16.326371230000007
4462.0   16.326371230000007
4464.0   16.329234001999993
4466.0   16.399361305000014
4468.0   16.431777708
4470.0   16.436771189000012
4472.0   16.436771189000012
4474.0   16.436771189000012
4476.0   16.438904990999987
4478.0   16.438904990999987
4480.0   16.438904990999987
4482.0   16.438904990999987
4484.0   16.438904990999987
4486.0   16.438904990999987
4488.0   16.438904990999987
4490.0   16.438904990999987
4492.0   16.46319160600001
4494.0   16.524830796999993
4496.0   16.535599517999998
4498.0   16.576369698999997
4500.0   16.576369698999997
4502.0   16.66490106500001
4504.0   16.677725232
4506.0   16.677725232
4508.0   16.677725232
4510.0   16.677725232
4512.0   16.67895640399999
4514.0   16.67895640399999
4516.0   16.691137841
4518.0   16.691137841
4520.0   16.68319274000001
4522.0   16.547042495
4524.0   16.39624123600001
4526.0   16.22597314500001
4528.0   16.038574742999998
4530.0   15.860340653999998
4532.0   15.769658795999987
4534.0   15.661366291999997
4536.0   15.547496335999995
4538.0   15.439116342999995
4540.0   15.230910857999987
4542.0   15.034136310999997
4544.0   14.986460349999987
4546.0   14.986460349999987
4548.0   14.986460349999987
4550.0   14.986460349999987
4552.0   14.986460349999987
4554.0   14.92856009900001
4556.0   14.791461991999995
4558.0   14.729631618000013
4560.0   14.729631618000013
4562.0   14.747537912000013
4564.0   14.756202581000025
4566.0   14.760791334000004
4568.0   14.760791334000004
4570.0   14.760791334000004
4572.0   14.760791334000004
4574.0   14.760791334000004
4576.0   14.758887036999994
4578.0   14.678741933999987
4580.0   14.607028106000001
4582.0   14.52393015299998
4584.0   14.46154547499998
4586.0   14.402578057
4588.0   14.26312360899999
4590.0   14.190963735999986
4592.0   14.106692109999983
4594.0   14.025347216
4596.0   13.922201081999987
4598.0   13.892140119999993
4600.0   13.795259343999987
4602.0   13.680432553000003
4604.0   13.613595858999986
4606.0   13.486993193999979
4608.0   13.363122043000004
4610.0   13.247499245
4612.0   13.181038642000004
4614.0   13.102230386999992
4616.0   13.050674716000003
4618.0   12.99432304299998
4620.0   12.853897854999985
4622.0   12.773635435999978
4624.0   12.684048171
4626.0   12.627747698999997
4628.0   12.542926443999988
4630.0   12.53642508599998
4632.0   12.543036702999984
4634.0   12.621132975999984
4636.0   12.688195614999984
4638.0   12.758486164999994
4640.0   12.758486164999994
4642.0   12.77146064599998
4644.0   12.861710101
4646.0   12.861710101
4648.0   12.861710101
4650.0   12.861710101
4652.0   12.827603686000003
4654.0   12.827603686000003
4656.0   12.827603686000003
4658.0   12.827603686000003
4660.0   12.827603686000003
4662.0   12.827603686000003
4664.0   12.833299772999993
4666.0   12.880557756999991
4668.0   12.880557756999991
4670.0   12.880557756999991
4672.0   12.932740524999986
4674.0   13.048113207
4676.0   13.152949117999981
4678.0   13.245510819000003
4680.0   13.300489097999986
4682.0   13.411100237999989
4684.0   13.465716901999997
4686.0   13.470772183999998
4688.0   13.47963631899998
4690.0   13.47963631899998
4692.0   13.47963631899998
4694.0   13.47963631899998
4696.0   13.484733755999997
4698.0   13.488838985000001
4700.0   13.554877087999984
4702.0   13.568495684999988
4704.0   13.586131112000004
4706.0   13.604469844999983
4708.0   13.612189088999997
4710.0   13.659023359000003
4712.0   13.714639449999993
4714.0   13.79314240299999
4716.0   13.79452205199999
4718.0   13.79452205199999
4720.0   13.805982763999992
4722.0   13.919836623999998
4724.0   14.041778650999987
4726.0   14.087424338999995
4728.0   14.09019230299998
4730.0   14.09019230299998
4732.0   14.09019230299998
4734.0   14.09019230299998
4736.0   14.09019230299998
4738.0   14.09019230299998
4740.0   14.09019230299998
4742.0   14.09019230299998
4744.0   14.09019230299998
4746.0   14.09019230299998
4748.0   14.09019230299998
4750.0   14.103942251999996
4752.0   14.154476568999996
4754.0   14.249502727999982
4756.0   14.27254406999998
4758.0   14.292432958000006
4760.0   14.300278915000007
4762.0   14.343193727
4764.0   14.429282901999983
4766.0   14.477022291999987
4768.0   14.480633004999987
4770.0   14.505698865
4772.0   14.505698865
4774.0   14.440129399
4776.0   14.440129399
4778.0   14.441962071999995
4780.0   14.441962071999995
4782.0   14.441962071999995
4784.0   14.441962071999995
4786.0   14.526074833999985
4788.0   14.61796731299998
4790.0   14.739506302999985
4792.0   14.768812521000001
4794.0   14.768812521000001
4796.0   14.768812521000001
4798.0   14.771748930000001
4800.0   14.771748930000001
4802.0   14.771748930000001
4804.0   14.781002806000004
4806.0   14.903193657999992
4808.0   15.008901750999996
4810.0   15.077449167999987
4812.0   15.076511393999994
4814.0   15.033867670000006
4816.0   14.812802681999983
4818.0   14.727175685999981
4820.0   14.677163498999988
4822.0   14.587181178999998
4824.0   14.48546821399998
4826.0   14.410982943999983
4828.0   14.323282871999993
4830.0   14.312269149000002
4832.0   14.214504847
4834.0   14.124618927
4836.0   13.993978658000003
4838.0   13.94001787099998
4840.0   13.941292666999999
4842.0   13.977724461999998
4844.0   13.979066716999995
4846.0   13.997216156999997
4848.0   13.999031045999999
4850.0   13.999031045999999
4852.0   13.999031045999999
4854.0   14.038738972999994
4856.0   14.107226775999976
4858.0   14.153531633
4860.0   14.154816558999983
4862.0   14.164298917999986
4864.0   14.231138319999985
4866.0   14.334740015999984
4868.0   14.443111404999996
4870.0   14.501153306999981
4872.0   14.504722367
4874.0   14.59849884899998
4876.0   14.676335151999979
4878.0   14.698853368999977
4880.0   14.698853368999977
4882.0   14.704736008999987
4884.0   14.705391483
4886.0   14.705391483
4888.0   14.705391483
4890.0   14.711222322999987
4892.0   14.711222322999987
4894.0   14.739531078999988
4896.0   14.822692692999993
4898.0   14.853297821999973
4900.0   14.87838348699998
4902.0   14.87838348699998
4904.0   14.87838348699998
4906.0   14.87838348699998
4908.0   14.88768747399999
4910.0   14.928686219999975
4912.0   15.00345962999998
4914.0   15.130883909999994
4916.0   15.165684859999999
4918.0   15.165684859999999
4920.0   15.165684859999999
4922.0   15.165684859999999
4924.0   15.199263881999997
4926.0   15.233808226999997
4928.0   15.329498617999974
4930.0   15.420319381999974
4932.0   15.45201922999999
4934.0   15.45201922999999
4936.0   15.463943782000001
4938.0   15.524341129999982
4940.0   15.54122444699999
4942.0   15.54122444699999
4944.0   15.54122444699999
4946.0   15.54122444699999
4948.0   15.54122444699999
4950.0   15.478358839999999
4952.0   15.477373139000008
4954.0   15.477373139000008
4956.0   15.543780963000017
4958.0   15.618952911000008
4960.0   15.725035909000013
4962.0   15.791695359000016
4964.0   15.79774813200001
4966.0   15.79774813200001
4968.0   15.79774813200001
4970.0   15.79774813200001
4972.0   15.79774813200001
4974.0   15.811512088
4976.0   15.821291760000008
4978.0   15.821291760000008
4980.0   15.821291760000008
4982.0   15.821291760000008
4984.0   15.827055857000005
4986.0   15.888407811999997
4988.0   15.909981426000002
4990.0   15.949123600000007
4992.0   16.011901155000004
4994.0   16.01841716300001
4996.0   16.019482533
4998.0   16.083087078999995
5000.0   16.168006539999993
