# Free energy difference as a function of time
# Base command: plumed sum_hills --hills HILLS_2D --idw lambda --kt 2.4777090399459767 --min -3.141592653589793,0.0000 --max 3.141592653589793,8.0000 --spacing 0.01,0.01 --stride NUM_STRIDE
# Column 1: Time (ps); Column 2: Free energy difference (kT)
4000.0   16.860980684999987
4002.0   16.816579128
4004.0   16.681790237
4006.0   16.678007355000005
4008.0   16.660728689999985
4010.0   16.465334147999982
4012.0   16.267332861
4014.0   16.049833320000005
4016.0   15.901283363999994
4018.0   15.63565804000001
4020.0   15.469800566999993
4022.0   15.259034964999984
4024.0   15.052889144999995
4026.0   14.914066467999987
4028.0   14.69565690799999
4030.0   14.506200313999983
4032.0   14.379852306000004
4034.0   14.226461107999995
4036.0   14.128447249000004
4038.0   13.897454253999996
4040.0   13.763095427999986
4042.0   13.713277739000006
4044.0   13.713277739000006
4046.0   13.713277739000006
4048.0   13.713277739000006
4050.0   13.757051243999996
4052.0   13.793135821000021
4054.0   13.833366553000019
4056.0   13.976083764999998
4058.0   14.134437412000011
4060.0   14.197383109000015
4062.0   14.34894866900001
4064.0   14.402295545000015
4066.0   14.496843632000008
4068.0   14.498787176999997
4070.0   14.501204754000014
4072.0   14.555560607000018
4074.0   14.555560607000018
4076.0   14.571144542000013
4078.0   14.574210340999997
4080.0   14.574210340999997
4082.0   14.714253319000022
4084.0   14.97355386000001
4086.0   15.093917028000021
4088.0   15.168346237000009
4090.0   15.174104576000019
4092.0   15.177722908000021
4094.0   15.177722908000021
4096.0   15.177722908000021
4098.0   15.177722908000021
4100.0   15.177722908000021
4102.0   15.177722908000021
4104.0   15.177722908000021
4106.0   15.177722908000021
4108.0   15.177722908000021
4110.0   15.177722908000021
4112.0   15.177722908000021
4114.0   15.177722908000021
4116.0   15.177722908000021
4118.0   15.241622508000006
4120.0   15.246912593000019
4122.0   15.246912593000019
4124.0   15.24755503900002
4126.0   15.24755503900002
4128.0   15.24755503900002
4130.0   15.253205107000014
4132.0   15.253205107000014
4134.0   15.251802547000011
4136.0   15.192745645999992
4138.0   15.192745645999992
4140.0   15.248537443999993
4142.0   15.257272770999975
4144.0   15.257272770999975
4146.0   15.260268404999977
4148.0   15.267898052999982
4150.0   15.267898052999982
4152.0   15.267898052999982
4154.0   15.342487382999991
4156.0   15.504672167999985
4158.0   15.63802259099998
4160.0   15.70943423
4162.0   15.70943423
4164.0   15.70943423
4166.0   15.75899224699998
4168.0   15.830695303999988
4170.0   15.830695303999988
4172.0   15.85218709999998
4174.0   15.881700584999976
4176.0   16.005422212999974
4178.0   15.991203443999979
4180.0   15.850966970999991
4182.0   15.686706602999976
4184.0   15.685496573999984
4186.0   15.685496573999984
4188.0   15.685496573999984
4190.0   15.722723871999989
4192.0   15.730233116999983
4194.0   15.730233116999983
4196.0   15.730233116999983
4198.0   15.552243106999981
4200.0   15.36801638099999
4202.0   15.331633116999996
4204.0   15.329648738999992
4206.0   15.329648738999992
4208.0   15.329648738999992
4210.0   15.329648738999992
4212.0   15.373659230000015
4214.0   15.410405133000012
4216.0   15.452478710000008
4218.0   15.452478710000008
4220.0   15.454682550000001
4222.0   15.454682550000001
4224.0   15.454682550000001
4226.0   15.454682550000001
4228.0   15.454682550000001
4230.0   15.454682550000001
4232.0   15.454682550000001
4234.0   15.472633887
4236.0   15.497341322000011
4238.0   15.620838171999992
4240.0   15.709509287000003
4242.0   15.784545035999997
4244.0   15.784545035999997
4246.0   15.784545035999997
4248.0   15.803692304999998
4250.0   15.803692304999998
4252.0   15.803692304999998
4254.0   15.803692304999998
4256.0   15.803692304999998
4258.0   15.803692304999998
4260.0   15.803692304999998
4262.0   15.803692304999998
4264.0   15.87649253699999
4266.0   15.873823200999993
4268.0   15.839872654999994
4270.0   15.816680428999973
4272.0   15.687922423999993
4274.0   15.630313908999995
4276.0   15.312842302999996
4278.0   15.20294295399998
4280.0   15.025012351999976
4282.0   14.856783313999983
4284.0   14.752316510999975
4286.0   14.656886995999997
4288.0   14.45211592999999
4290.0   14.408506966999994
4292.0   14.403320638999986
4294.0   14.403320638999986
4296.0   14.403320638999986
4298.0   14.403320638999986
4300.0   14.46666270099999
4302.0   14.47754608400001
4304.0   14.47754608400001
4306.0   14.503878140000012
4308.0   14.575840262000014
4310.0   14.575840262000014
4312.0   14.575840262000014
4314.0   14.575840262000014
4316.0   14.645078111000004
4318.0   14.847908762999992
4320.0   14.961307167000001
4322.0   14.961307167000001
4324.0   14.961307167000001
4326.0   14.961307167000001
4328.0   15.040470505999991
4330.0   15.072273521
4332.0   15.186505653000012
4334.0   15.365259696999999
4336.0   15.427410600000002
4338.0   15.436105174000005
4340.0   15.470623382000014
4342.0   15.519146535000004
4344.0   15.519146535000004
4346.0   15.519146535000004
4348.0   15.519146535000004
4350.0   15.53589437299999
4352.0   15.564249087999997
4354.0   15.564249087999997
4356.0   15.571887858999986
4358.0   15.721197093
4360.0   15.721197093
4362.0   15.721197093
4364.0   15.721197093
4366.0   15.626405105000003
4368.0   15.531614073000014
4370.0   15.341766143000001
4372.0   15.21443306399999
4374.0   15.15796616
4376.0   15.042503059000012
4378.0   14.80812223000001
4380.0   14.56311895799999
4382.0   14.322007909999996
4384.0   14.14184788899999
4386.0   13.895139959999995
4388.0   13.85731714100001
4390.0   13.882247428
4392.0   14.019825426000011
4394.0   14.193369984000014
4396.0   14.33204445200002
4398.0   14.542146563000017
4400.0   14.738999198000016
4402.0   14.982590545000022
4404.0   15.278715639000012
4406.0   15.49166445900002
4408.0   15.607172541000011
4410.0   15.795966504000006
4412.0   16.103546370000004
4414.0   16.32075872500002
4416.0   16.499169164000023
4418.0   16.693383858000004
4420.0   16.813909651000017
4422.0   16.823924973000004
4424.0   16.881019484000007
4426.0   16.881019484000007
4428.0   16.883025232000023
4430.0   16.883025232000023
4432.0   16.892771862000018
4434.0   16.95427985400002
4436.0   16.956787673999997
4438.0   16.956787673999997
4440.0   16.993006479
4442.0   17.18404674200002
4444.0   17.438601868999996
4446.0   17.49721745100001
4448.0   17.50016315100001
4450.0   17.510164297000017
4452.0   17.519431386999997
4454.0   17.519431386999997
4456.0   17.50122447199999
4458.0   17.476712650999985
4460.0   17.476712650999985
4462.0   17.476712650999985
4464.0   17.594671111999986
4466.0   17.700369488000007
4468.0   17.744819062000005
4470.0   17.750382575000003
4472.0   17.86964976499999
4474.0   17.900077944000003
4476.0   18.083074683000007
4478.0   18.15273596099999
4480.0   18.15273596099999
4482.0   18.245699215000002
4484.0   18.245699215000002
4486.0   18.623269980999993
4488.0   18.983174896999998
4490.0   19.10226842899999
4492.0   19.302995882000005
4494.0   19.443687348999987
4496.0   19.48360982599999
4498.0   19.50988180799999
4500.0   19.56300861400001
4502.0   19.59515856600001
4504.0   19.752936258000005
4506.0   19.82613977599999
4508.0   19.855553764999996
4510.0   19.93084766300001
4512.0   20.174076515999985
4514.0   20.18754437199999
4516.0   20.18754437199999
4518.0   20.18754437199999
4520.0   20.204897544000005
4522.0   20.204897544000005
4524.0   20.24618150699999
4526.0   20.24618150699999
4528.0   20.24618150699999
4530.0   20.249680504999986
4532.0   20.277603632999984
4534.0   20.499929277999996
4536.0   20.499929277999996
4538.0   20.43790921499999
4540.0   20.14940340000001
4542.0   19.990537872000004
4544.0   19.99363667
4546.0   19.99363667
4548.0   19.99363667
4550.0   19.997144710000015
4552.0   20.087582751000014
4554.0   20.115456616000017
4556.0   20.108286855000017
4558.0   20.127578278000016
4560.0   20.292215440000007
4562.0   20.341246525999992
4564.0   20.494442437000004
4566.0   20.530345570999998
4568.0   20.55039445700001
4570.0   20.607033598000015
4572.0   20.627119111000013
4574.0   20.658719812000015
4576.0   20.671139552
4578.0   20.794411123000003
4580.0   20.869712389
4582.0   20.996755816000018
4584.0   20.982242008000014
4586.0   20.652458544000012
4588.0   20.418934722000017
4590.0   20.10957672500001
4592.0   19.516524242000003
4594.0   18.920199303000004
4596.0   18.655292093000014
4598.0   18.556241875000012
4600.0   18.54728934800002
4602.0   18.54728934800002
4604.0   18.54728934800002
4606.0   18.54728934800002
4608.0   18.54728934800002
4610.0   18.56800573800001
4612.0   18.60056842200001
4614.0   18.788673055000004
4616.0   18.834094547999996
4618.0   18.856659215000008
4620.0   18.868427885000017
4622.0   18.868427885000017
4624.0   18.868427885000017
4626.0   18.91806700800001
4628.0   18.959713679000004
4630.0   18.966871585999996
4632.0   18.966871585999996
4634.0   18.983042565999995
4636.0   19.166525078000006
4638.0   19.382121150000017
4640.0   19.578953530999996
4642.0   19.578953530999996
4644.0   19.61032310500002
4646.0   19.67568565800002
4648.0   19.67568565800002
4650.0   19.67568565800002
4652.0   19.713695494000007
4654.0   19.74865179400001
4656.0   19.766115426
4658.0   19.894630988000017
4660.0   20.155716356
4662.0   20.408789017000004
4664.0   20.692779059000003
4666.0   20.893573500000002
4668.0   20.893573500000002
4670.0   20.893573500000002
4672.0   20.893573500000002
4674.0   20.85898109499999
4676.0   20.646290840999995
4678.0   20.503000240999995
4680.0   20.322430132999983
4682.0   20.06358438699999
4684.0   19.858364179999995
4686.0   19.685627259
4688.0   19.44648948599999
4690.0   19.166279696999993
4692.0   18.919108650999988
4694.0   18.726807613999995
4696.0   18.579427046000006
4698.0   18.521329023999982
4700.0   18.37422561599999
4702.0   18.21535056899998
4704.0   18.031665419000007
4706.0   17.897716826999982
4708.0   17.414859903000007
4710.0   17.114617098999986
4712.0   17.090862378999987
4714.0   17.18554248999999
4716.0   17.205054002999987
4718.0   17.205054002999987
4720.0   17.211639934000004
4722.0   17.240775888
4724.0   17.275877721
4726.0   17.31777216499998
4728.0   17.331951978000006
4730.0   17.359633248999984
4732.0   17.41994004999998
4734.0   17.431535247
4736.0   17.42835863900001
4738.0   17.42835863900001
4740.0   17.42835863900001
4742.0   17.42835863900001
4744.0   17.49294171400001
4746.0   17.60059057000001
4748.0   17.616079170999996
4750.0   17.632266308
4752.0   17.632266308
4754.0   17.632266308
4756.0   17.632266308
4758.0   17.632266308
4760.0   17.632266308
4762.0   17.704305414000004
4764.0   17.876522776
4766.0   17.920142456999997
4768.0   17.920142456999997
4770.0   17.941857778000013
4772.0   17.941857778000013
4774.0   17.941857778000013
4776.0   17.949730644
4778.0   17.962555694999992
4780.0   17.962555694999992
4782.0   17.962555694999992
4784.0   17.962555694999992
4786.0   17.962555694999992
4788.0   17.962555694999992
4790.0   17.962555694999992
4792.0   17.967276655999996
4794.0   18.022405708000008
4796.0   18.074831957000015
4798.0   18.074831957000015
4800.0   18.07766847900001
4802.0   18.07766847900001
4804.0   18.07766847900001
4806.0   18.07766847900001
4808.0   18.083820183
4810.0   18.111885426000015
4812.0   18.156948338999996
4814.0   18.185090972000012
4816.0   18.190506348000014
4818.0   18.201573351999997
4820.0   18.21957998900001
4822.0   18.22940386100001
4824.0   18.237594394000013
4826.0   18.339331266000016
4828.0   18.35289104399999
4830.0   18.360322131000004
4832.0   18.359056896999988
4834.0   18.359056896999988
4836.0   18.350751287999998
4838.0   17.993464824
4840.0   17.787344797999992
4842.0   17.302789673000007
4844.0   16.945135184999998
4846.0   16.583725853000004
4848.0   16.493779001000007
4850.0   16.370676664
4852.0   16.37028072800001
4854.0   16.37028072800001
4856.0   16.37028072800001
4858.0   16.37028072800001
4860.0   16.372599675000004
4862.0   16.37470541000002
4864.0   16.381242912000005
4866.0   16.51213678800002
4868.0   16.654733575000023
4870.0   16.799005639
4872.0   16.83425778100002
4874.0   16.83738422600001
4876.0   16.839902126
4878.0   16.839902126
4880.0   16.86426014600002
4882.0   16.926253446000004
4884.0   16.955708575000017
4886.0   17.01792917900002
4888.0   17.277462207000013
4890.0   17.41237758700001
4892.0   17.465378626000017
4894.0   17.553028275000003
4896.0   17.571213374000024
4898.0   17.578838556000022
4900.0   17.58284950800001
4902.0   17.58284950800001
4904.0   17.70867293500001
4906.0   17.748093360000013
4908.0   17.75414726400001
4910.0   17.760236918000004
4912.0   17.760236918000004
4914.0   17.760236918000004
4916.0   17.89971971
4918.0   17.92521554000001
4920.0   17.944919417000023
4922.0   17.993713434
4924.0   18.184374443000024
4926.0   18.326502793000003
4928.0   18.336867901000005
4930.0   18.336867901000005
4932.0   18.336867901000005
4934.0   18.336867901000005
4936.0   18.336867901000005
4938.0   18.341618754000024
4940.0   18.471489587000008
4942.0   18.47229804700001
4944.0   18.595471099999997
4946.0   18.613465820000016
4948.0   18.637626278
4950.0   18.637626278
4952.0   18.656295710000023
4954.0   18.876643778000016
4956.0   18.879087434000013
4958.0   18.998174199000005
4960.0   19.05069541100002
4962.0   19.306995895
4964.0   19.44977441200001
4966.0   19.452550359000014
4968.0   19.455085792000006
4970.0   19.394491254000002
4972.0   19.318601489999992
4974.0   19.120160546999983
4976.0   18.880117057000007
4978.0   18.843023002999985
4980.0   18.733703789999993
4982.0   18.52846746099999
4984.0   18.52488526799999
4986.0   18.529836139999986
4988.0   18.755220543999997
4990.0   18.786556767000008
4992.0   18.786556767000008
4994.0   18.790634307000005
4996.0   18.790634307000005
4998.0   18.790634307000005
5000.0   18.72405002900001
